-1786 -4036 -2312 -505 -13 -33 -79 -123 -111 -29 9 -53 -93 -11 63 -6 -128 -115 25 121 40 -95 -81 160 504 874 1207 1363 1139 502 -218 -667 -730 -591 -431 -261 -111 -41 -59 -74 -42 5 9 -22 -68 -94 -87 -77 -111 -122 -25 111 96 -68 -195 -184 -122 -85 -67 -32 -4 2 -37 -112 -136 -44 61 30 -132 -241 -181 -54 -26 -72 -97 -106 -165 -195 -30 333 590 416 -103 -208 518 360 -2574 -5849 -3920 3586 8977 6713 475 -3166 -2762 -1216 -443 -230 -101 -46 -106 -105 26 113 -22 -280 -369 -180 85 193 90 -91 -165 -89 -32 3 254 859 1453 1555 1108 364 -355 -790 -810 -540 -254 -131 -162 -267 -301 -196 -47 5 -26 -40 -69 -158 -233 -210 -120 -50 -20 -2 -30 -143 -261 -283 -208 -84 38 82 -24 -230 -348 -279 -126 -40 -73 -110 -44 36 -40 -257 -405 -335 -122 34 16 -118 -217 -214 -171 -167 -207 -279 -370 -418 -254 -21 59 -1 -12 -5 -175 -194 188 93 -2051 -5329 -5030 1278 8598 8968 2390 -3572 -4376 -2093 -438 -175 -326 -416 -369 -323 -277 -264 -289 -361 -368 -274 -194 -279 -463 -564 -503 -374 -357 -416 -265 393 1297 1703 1211 230 -599 -1022 -1106 -897 -568 -387 -417 -443 -329 -253 -284 -322 -355 -459 -535 -381 -98 -33 -252 -452 -447 -335 -294 -317 -343 -333 -313 -293 -305 -340 -383 -370 -305 -227 -232 -286 -345 -359 -372 -343 -247 -153 -170 -276 -381 -352 -236 -181 -260 -338 -330 -320 -387 -439 -365 -182 55 231 161 -185 -247 469 416 -2822 -7284 -6184 2768 11143 9872 1574 -4352 -4279 -1803 -485 -407 -497 -399 -247 -187 -206 -210 -198 -204 -208 -175 -131 -147 -264 -377 -343 -160 1 69 197 582 1162 1564 1374 615 -238 -761 -922 -877 -696 -435 -228 -151 -185 -248 -262 -179 -59 -40 -171 -297 -265 -140 -108 -170 -190 -138 -134 -228 -311 -252 -104 -44 -160 -329 -360 -185 48 98 -105 -330 -349 -222 -154 -191 -253 -289 -270 -73 305 562 341 -197 -304 387 312 -2554 -6162 -4662 3250 9828 7777 389 -4088 -3365 -1108 -142 -120 -159 -211 -330 -374 -233 -57 -22 -84 -83 -53 -124 -251 -262 -159 -99 -129 -98 125 582 1182 1681 1763 1242 269 -693 -1178 -1064 -696 -465 -411 -324 -180 -110 -118 -71 12 -20 -167 -215 -105 -17 -91 -219 -259 -226 -223 -236 -162 -3 66 -63 -272 -348 -287 -202 -128 -33 21 -52 -229 -372 -390 -324 -257 -121 162 460 452 47 -219 356 806 -1528 -6324 -7432 -140 9776 11639 4349 -3159 -4782 -2594 -757 -257 -208 -201 -197 -165 -117 -116 -159 -190 -204 -247 -287 -263 -184 -113 -58 -30 -69 -91 194 902 1636 1809 1241 313 -469 -895 -983 -835 -564 -324 -201 -175 -197 -204 -143 -50 -37 -143 -221 -172 -98 -137 -232 -222 -99 -47 -157 -296 -294 -191 -137 -142 -128 -104 -136 -206 -216 -157 -120 -165 -236 -245 -189 -153 -195 -263 -257 -133 74 268 307 103 -104 292 901 -743 -5499 -8205 -2592 8124 12673 6761 -1776 -4876 -3112 -1084 -515 -442 -255 -149 -241 -350 -275 -57 58 -50 -250 -350 -314 -230 -159 -91 -44 -58 -79 95 612 1327 1801 1632 835 -111 -731 -940 -927 -787 -493 -141 -1 -162 -378 -377 -198 -58 -50 -120 -197 -211 -153 -112 -162 -256 -283 -198 -93 -88 -185 -272 -271 -203 -148 -131 -124 -108 -102 -124 -174 -239 -302 -294 -188 -58 -22 -90 -201 -316 -427 -438 -215 201 534 486 61 -167 405 718 -1793 -6487 -7170 393 10021 11346 3887 -3387 -4758 -2506 -728 -272 -199 -88 -27 -75 -159 -198 -236 -296 -295 -173 -23 5 -128 -280 -287 -137 6 81 270 755 1350 1622 1324 620 -139 -671 -865 -801 -672 -533 -326 -96 -16 -99 -188 -190 -174 -179 -176 -131 -93 -140 -273 -353 -262 -64 24 -69 -226 -290 -259 -235 -222 -129 -18 -35 -162 -207 -143 -123 -217 -312 -301 -219 -184 -163 -10 268 400 182 -38 351 484 -1846 -5891 -6026 1064 9205 9432 2447 -3369 -3819 -1727 -506 -375 -380 -284 -176 -103 -68 -79 -148 -243 -278 -231 -146 -70 -17 -18 -88 -193 -222 -32 435 1064 1584 1692 1239 368 -502 -1000 -1060 -882 -652 -419 -186 -45 -96 -275 -378 -277 -40 144 117 -146 -414 -401 -152 -20 -158 -318 -259 -103 -81 -201 -311 -320 -222 -84 -44 -163 -285 -247 -121 -84 -144 -210 -239 -258 -320 -384 -306 -17 312 400 163 -218 -236 566 960 -1732 -6783 -7644 200 10329 11857 4183 -3350 -4756 -2484 -791 -472 -481 -375 -229 -144 -155 -179 -143 -114 -187 -289 -272 -142 -62 -118 -218 -236 -158 -2 339 941 1550 1687 1156 269 -491 -890 -953 -793 -543 -339 -243 -209 -164 -106 -115 -237 -352 -291 -83 54 -10 -191 -314 -320 -267 -230 -219 -202 -166 -118 -86 -119 -220 -306 -284 -195 -131 -112 -110 -159 -254 -300 -228 -134 -144 -218 -221 -141 -82 -110 -159 -184 -229 -321 -357 -262 -140 -153 -280 -301 -75 246 396 216 -97 107 960 356 -3870 -8451 -5917 4567 12763 10047 876 -4795 -4271 -1774 -562 -380 -318 -273 -263 -241 -211 -202 -178 -105 -49 -102 -215 -276 -262 -241 -184 -82 -26 2 257 869 1529 1745 1330 479 -396 -936 -1023 -826 -565 -361 -248 -234 -257 -234 -166 -123 -125 -179 -268 -312 -230 -115 -135 -290 -373 -265 -75 -13 -140 -328 -392 -315 -224 -218 -237 -185 -86 -67 -160 -272 -301 -259 -222 -238 -253 -216 -159 -160 -196 -187 -144 -158 -232 -284 -245 -173 -147 -188 -255 -307 -337 -314 -142 179 415 246 -178 -67 715 47 -3827 -7402 -4198 5274 11314 7563 -589 -4669 -3492 -1187 -239 -169 -206 -245 -287 -318 -322 -283 -181 -74 -46 -98 -147 -171 -207 -251 -254 -233 -170 36 446 979 1450 1600 1232 415 -478 -1039 -1121 -883 -564 -326 -213 -211 -249 -265 -256 -263 -281 -243 -133 -56 -129 -294 -322 -169 -61 -172 -357 -409 -347 -275 -189 -84 -52 -171 -326 -363 -279 -186 -153 -177 -227 -270 -275 -267 -266 -241 -176 -147 -219 -327 -377 -362 -263 -31 231 275 18 -177 270 859 -728 -5217 -7768 -2561 7415 11671 6153 -1821 -4748 -3106 -1123 -467 -371 -298 -243 -186 -144 -193 -296 -305 -200 -140 -204 -264 -220 -166 -216 -309 -309 -165 121 603 1233 1681 1541 785 -177 -876 -1117 -986 -700 -471 -387 -395 -386 -300 -185 -128 -165 -227 -229 -177 -149 -189 -268 -326 -329 -279 -214 -175 -185 -218 -233 -198 -140 -133 -232 -356 -357 -240 -172 -210 -241 -199 -181 -243 -285 -238 -193 -219 -257 -217 -140 -136 -222 -310 -308 -197 -79 -92 -257 -415 -439 -384 -351 -291 -111 156 346 298 -51 -327 184 896 -911 -5856 -8319 -2217 8531 12617 6420 -2008 -5019 -3319 -1250 -487 -361 -342 -346 -301 -218 -176 -187 -177 -151 -174 -256 -308 -256 -176 -192 -277 -321 -234 30 529 1181 1661 1612 985 94 -654 -1035 -1048 -833 -560 -362 -261 -221 -217 -255 -299 -283 -199 -144 -164 -204 -218 -239 -281 -314 -298 -261 -251 -282 -263 -176 -145 -216 -266 -227 -171 -178 -206 -237 -275 -269 -167 -77 -117 -236 -295 -295 -319 -336 -257 -145 -118 -175 -205 -184 -176 -230 -279 -252 -167 -132 -222 -383 -483 -433 -207 116 390 390 18 -360 52 947 -270 -4984 -8453 -3830 6934 12735 7810 -1002 -5013 -3716 -1485 -531 -279 -178 -238 -373 -381 -231 -110 -172 -312 -315 -162 -59 -156 -372 -477 -370 -155 13 155 433 932 1459 1627 1185 294 -569 -1011 -1017 -822 -622 -476 -371 -274 -186 -129 -114 -142 -216 -288 -286 -221 -213 -297 -348 -285 -197 -186 -203 -156 -83 -110 -264 -402 -372 -220 -132 -159 -204 -226 -269 -304 -254 -155 -117 -153 -209 -244 -234 -203 -212 -271 -323 -342 -377 -384 -206 138 398 332 -23 -273 117 659 -806 -4833 -6862 -1791 7158 10362 4822 -2249 -4311 -2465 -770 -444 -456 -279 -125 -140 -231 -283 -289 -260 -172 -73 -62 -135 -218 -280 -323 -337 -279 -121 203 760 1420 1794 1556 780 -137 -817 -1078 -975 -739 -570 -464 -314 -136 -80 -180 -302 -303 -205 -136 -147 -187 -219 -235 -221 -172 -163 -261 -384 -371 -222 -119 -192 -325 -316 -157 -69 -194 -400 -435 -286 -153 -139 -170 -203 -249 -292 -312 -350 -420 -440 -355 -255 -179 -31 231 386 151 -303 -171 779 485 -3434 -8110 -6197 3752 12168 10115 1269 -4594 -4340 -1891 -619 -391 -288 -209 -282 -413 -423 -295 -179 -153 -186 -248 -330 -351 -271 -143 -100 -200 -325 -201 325 1085 1679 1771 1243 274 -692 -1217 -1215 -939 -661 -430 -220 -92 -127 -262 -365 -356 -275 -193 -173 -202 -228 -221 -237 -297 -345 -314 -220 -143 -170 -309 -453 -424 -237 -104 -151 -255 -258 -194 -229 -373 -459 -357 -152 -21 -60 -228 -414 -477 -406 -322 -273 -119 166 297 26 -363 -59 981 375 -4008 -8525 -5614 5052 12839 9570 316 -5022 -4208 -1659 -536 -474 -458 -342 -264 -265 -264 -221 -193 -225 -258 -244 -215 -241 -302 -323 -291 -222 -87 153 554 1101 1576 1591 991 83 -686 -1101 -1153 -931 -578 -284 -142 -136 -221 -360 -463 -436 -298 -139 -45 -74 -198 -307 -290 -202 -186 -260 -314 -315 -319 -314 -233 -112 -79 -202 -367 -403 -282 -172 -217 -339 -369 -270 -161 -143 -191 -262 -354 -433 -428 -278 -13 251 345 121 -255 -94 689 -51 -4205 -8122 -4768 5551 12366 8499 -356 -4902 -3796 -1509 -612 -448 -275 -154 -126 -146 -241 -365 -383 -289 -228 -241 -245 -218 -228 -276 -309 -285 -174 107 620 1250 1667 1550 883 -29 -816 -1197 -1093 -698 -362 -267 -309 -346 -338 -292 -224 -190 -245 -314 -300 -221 -177 -193 -230 -278 -323 -313 -251 -205 -215 -219 -194 -218 -315 -376 -315 -210 -196 -253 -289 -285 -287 -297 -293 -296 -245 -7 313 365 -28 -366 83 606 -1223 -5405 -6636 -452 8343 10083 3560 -3101 -4330 -2165 -538 -267 -399 -448 -366 -214 -140 -178 -242 -276 -287 -249 -172 -139 -211 -290 -286 -234 -204 -119 204 850 1572 1860 1350 282 -702 -1147 -1087 -827 -611 -472 -367 -283 -234 -225 -231 -230 -239 -227 -164 -80 -93 -248 -425 -460 -355 -235 -210 -270 -319 -260 -166 -203 -384 -513 -438 -211 -42 -66 -235 -368 -374 -327 -337 -387 -409 -331 -111 168 278 59 -239 69 786 -422 -4926 -8290 -3851 6718 12533 7726 -1025 -5029 -3704 -1472 -602 -447 -325 -230 -236 -280 -280 -227 -215 -302 -430 -471 -384 -247 -163 -149 -193 -251 -199 119 683 1247 1507 1311 672 -190 -897 -1162 -1011 -705 -480 -383 -369 -346 -264 -170 -140 -189 -275 -351 -390 -355 -259 -175 -168 -227 -308 -353 -336 -292 -298 -349 -351 -283 -222 -200 -200 -216 -260 -305 -307 -270 -248 -284 -343 -329 -220 -121 -136 -233 -312 -335 -316 -282 -283 -368 -506 -537 -286 186 477 228 -310 -247 744 595 -3265 -8204 -6677 3398 12506 10876 1670 -4828 -4774 -2103 -635 -438 -439 -352 -277 -265 -279 -274 -258 -231 -169 -113 -156 -296 -422 -439 -345 -223 -142 -31 288 866 1447 1625 1207 367 -482 -1011 -1139 -970 -668 -402 -275 -284 -338 -347 -284 -203 -164 -183 -239 -309 -350 -341 -290 -233 -207 -230 -271 -285 -274 -266 -263 -288 -356 -405 -329 -162 -71 -135 -260 -344 -356 -283 -160 -126 -249 -377 -328 -179 -128 -221 -330 -348 -275 -191 -164 -225 -328 -407 -429 -410 -377 -298 -56 319 508 195 -280 -9 709 -787 -5503 -8248 -2659 8105 12672 6629 -2111 -5301 -3397 -1115 -379 -343 -319 -281 -265 -275 -279 -257 -240 -254 -250 -227 -253 -341 -378 -279 -110 -29 -58 -21 307 929 1525 1634 1056 82 -725 -1061 -1022 -848 -626 -398 -264 -265 -287 -267 -256 -292 -298 -239 -182 -169 -183 -241 -327 -370 -295 -200 -232 -354 -391 -310 -221 -180 -161 -177 -241 -337 -409 -411 -322 -207 -180 -253 -282 -211 -164 -274 -452 -509 -389 -188 38 237 244 -58 -247 250 436 -2002 -6138 -6138 1214 9417 9414 2197 -3658 -4025 -1876 -643 -434 -349 -284 -322 -352 -297 -192 -137 -179 -264 -291 -279 -301 -349 -323 -229 -173 -170 -57 345 987 1534 1608 1090 239 -546 -1025 -1166 -1017 -724 -464 -319 -263 -264 -306 -319 -248 -169 -165 -220 -264 -265 -217 -171 -227 -382 -478 -384 -174 -76 -190 -360 -359 -223 -199 -339 -436 -361 -214 -138 -148 -202 -261 -289 -297 -336 -389 -385 -336 -361 -394 -186 247 460 120 -354 -31 837 -339 -4981 -8459 -3940 6814 12765 7951 -927 -5061 -3767 -1477 -574 -500 -491 -381 -202 -73 -85 -193 -303 -370 -364 -280 -208 -247 -349 -379 -296 -178 -56 172 613 1169 1506 1321 656 -148 -767 -1069 -1052 -804 -513 -339 -296 -304 -302 -303 -324 -344 -334 -273 -154 -63 -117 -291 -427 -427 -322 -222 -206 -275 -342 -328 -251 -181 -177 -249 -297 -263 -227 -279 -382 -405 -296 -137 -80 -199 -336 -309 -193 -215 -383 -498 -473 -403 -308 -83 237 374 115 -310 -162 772 465 -3524 -8387 -6559 3757 12729 10764 1466 -4839 -4663 -2106 -792 -590 -487 -309 -180 -162 -259 -363 -346 -225 -135 -143 -222 -334 -472 -547 -466 -275 -99 87 428 973 1488 1599 1113 241 -556 -963 -1020 -921 -769 -553 -353 -269 -284 -293 -259 -227 -226 -240 -283 -342 -368 -313 -229 -212 -274 -322 -317 -298 -320 -365 -372 -329 -278 -258 -280 -287 -267 -264 -325 -403 -401 -302 -186 -130 -153 -188 -222 -304 -448 -541 -481 -333 -244 -198 -67 149 204 -58 -278 232 839 -1046 -5815 -7866 -1620 8602 11821 5293 -2611 -4924 -2998 -1075 -418 -229 -149 -196 -312 -410 -439 -372 -279 -251 -272 -255 -204 -193 -233 -261 -263 -237 -151 101 603 1246 1633 1390 572 -331 -890 -1057 -991 -810 -598 -443 -384 -357 -286 -171 -113 -183 -305 -299 -168 -139 -306 -439 -346 -196 -242 -392 -406 -283 -220 -274 -316 -291 -257 -247 -266 -283 -274 -246 -239 -287 -366 -419 -410 -353 -277 -146 72 247 127 -265 -319 404 414 -2619 -6912 -6014 2420 10535 9462 1526 -4181 -4145 -1822 -558 -346 -308 -300 -330 -355 -366 -336 -233 -109 -94 -229 -389 -446 -398 -305 -214 -164 -157 -45 375 1034 1509 1429 843 87 -583 -1036 -1171 -999 -694 -441 -325 -346 -400 -349 -198 -93 -126 -220 -288 -324 -334 -327 -312 -288 -267 -267 -288 -325 -365 -365 -309 -257 -290 -375 -396 -320 -217 -171 -208 -288 -348 -341 -319 -365 -467 -484 -338 -196 -213 -230 -40 179 42 -287 -62 708 -226 -4570 -8410 -4797 5864 12933 9030 -214 -5253 -4282 -1728 -542 -370 -367 -374 -386 -366 -302 -246 -224 -228 -249 -297 -348 -361 -331 -303 -305 -325 -257 31 595 1237 1559 1295 570 -240 -799 -979 -868 -685 -559 -456 -335 -307 -416 -484 -361 -185 -139 -224 -346 -443 -451 -359 -255 -244 -288 -298 -264 -276 -376 -453 -391 -253 -178 -214 -282 -349 -398 -387 -314 -257 -260 -290 -295 -295 -304 -302 -277 -282 -331 -396 -459 -509 -483 -300 28 298 253 -128 -287 335 470 -2520 -7393 -7298 1488 11384 11663 3172 -4131 -5000 -2534 -873 -483 -386 -296 -253 -238 -284 -394 -480 -422 -251 -128 -144 -228 -304 -353 -384 -352 -233 -17 353 906 1415 1521 1086 332 -412 -914 -1096 -1015 -809 -553 -316 -217 -280 -321 -245 -195 -282 -392 -412 -371 -317 -249 -225 -281 -361 -365 -299 -233 -224 -301 -412 -429 -321 -225 -270 -360 -348 -246 -197 -219 -244 -287 -385 -462 -460 -454 -452 -281 89 361 206 -256 -357 352 506 -2250 -6525 -6141 1708 9895 9400 1804 -4011 -4118 -1744 -455 -405 -529 -482 -345 -240 -206 -220 -248 -283 -312 -316 -308 -290 -235 -183 -207 -296 -313 -120 330 964 1500 1554 993 130 -603 -1033 -1167 -1047 -756 -465 -299 -264 -317 -341 -232 -103 -146 -325 -422 -366 -300 -311 -328 -289 -243 -245 -285 -349 -423 -453 -373 -236 -172 -219 -317 -388 -396 -351 -278 -214 -206 -289 -447 -571 -537 -293 76 307 168 -131 18 572 -562 -4773 -8040 -3952 6342 12330 7823 -890 -5042 -3772 -1476 -524 -355 -324 -380 -460 -457 -365 -297 -297 -275 -195 -161 -248 -389 -475 -463 -335 -145 11 179 559 1148 1535 1287 480 -410 -976 -1114 -955 -727 -587 -531 -456 -322 -190 -150 -228 -354 -400 -342 -296 -333 -361 -294 -185 -153 -232 -356 -408 -355 -302 -332 -351 -272 -187 -232 -343 -393 -361 -320 -329 -370 -357 -260 -178 -225 -344 -402 -377 -350 -370 -424 -440 -322 -32 260 270 -95 -330 240 702 -1707 -6733 -8018 -435 10249 12509 4780 -3448 -5336 -2981 -1025 -548 -488 -361 -286 -334 -437 -459 -342 -168 -100 -204 -364 -424 -367 -279 -226 -202 -191 -128 114 629 1242 1538 1229 440 -425 -1003 -1186 -1068 -813 -556 -398 -333 -277 -182 -133 -228 -412 -504 -436 -299 -227 -229 -256 -292 -357 -427 -450 -404 -335 -255 -185 -181 -274 -391 -437 -396 -324 -265 -257 -306 -359 -358 -324 -292 -261 -218 -235 -357 -505 -524 -412 -298 -207 -29 177 142 -204 -333 301 586 -2042 -6734 -7133 762 10335 11082 3180 -3905 -4792 -2328 -688 -413 -460 -454 -427 -364 -280 -253 -330 -368 -234 -65 -104 -305 -439 -433 -372 -292 -189 -48 204 679 1254 1535 1216 402 -478 -1035 -1179 -1040 -781 -510 -332 -278 -272 -266 -313 -406 -410 -261 -94 -70 -198 -359 -452 -452 -404 -376 -373 -324 -215 -141 -185 -295 -361 -359 -348 -357 -340 -257 -185 -248 -463 -673 -674 -387 49 374 363 0 -384 -211 469 -211 -3786 -7028 -3992 4938 10656 7054 -680 -4469 -3294 -1185 -449 -461 -449 -370 -298 -275 -325 -402 -407 -301 -191 -186 -246 -283 -303 -342 -358 -318 -197 128 747 1405 1601 1135 331 -381 -818 -981 -933 -785 -633 -513 -438 -429 -434 -360 -212 -103 -118 -229 -322 -339 -324 -352 -402 -409 -337 -221 -173 -256 -401 -472 -422 -338 -312 -343 -376 -352 -272 -238 -316 -408 -356 -243 -279 -402 -301 58 257 -5 -266 233 673 -1652 -6535 -7812 -481 9882 12059 4576 -3325 -5083 -2797 -959 -554 -519 -402 -338 -367 -399 -380 -355 -339 -276 -195 -230 -381 -475 -402 -279 -234 -196 -13 376 941 1440 1484 864 -104 -846 -1085 -987 -818 -675 -543 -429 -351 -313 -301 -299 -280 -254 -244 -280 -334 -356 -351 -365 -381 -325 -216 -202 -318 -434 -428 -345 -275 -262 -313 -384 -388 -304 -202 -189 -268 -361 -372 -295 -215 -217 -279 -356 -445 -522 -500 -356 -148 55 193 128 -161 -254 381 533 -2410 -7341 -7476 1167 11250 11848 3416 -4072 -5062 -2543 -806 -467 -475 -452 -415 -370 -316 -278 -271 -299 -325 -318 -271 -233 -262 -362 -436 -396 -232 21 418 1004 1558 1602 920 -110 -873 -1137 -1058 -838 -573 -386 -349 -381 -363 -301 -260 -258 -254 -255 -301 -366 -374 -346 -351 -375 -346 -298 -309 -343 -319 -275 -282 -334 -359 -337 -300 -275 -247 -231 -273 -369 -404 -309 -183 -178 -268 -312 -303 -347 -433 -442 -356 -322 -384 -367 -111 246 336 -21 -395 -13 607 -1016 -5296 -7060 -1205 8101 10686 4372 -2836 -4619 -2568 -827 -453 -458 -344 -220 -198 -276 -368 -387 -313 -223 -188 -228 -315 -398 -428 -391 -304 -179 -3 262 676 1182 1490 1267 526 -343 -936 -1111 -1000 -823 -699 -594 -422 -227 -148 -210 -285 -286 -265 -254 -232 -242 -340 -441 -413 -305 -261 -304 -350 -362 -356 -319 -264 -243 -286 -348 -351 -294 -249 -257 -301 -341 -363 -391 -440 -481 -452 -325 -122 133 329 237 -109 -118 392 -528 -4514 -7844 -4013 6112 12156 7778 -905 -5085 -3839 -1547 -605 -423 -309 -240 -263 -336 -359 -284 -218 -278 -389 -363 -211 -147 -277 -444 -452 -305 -92 238 752 1282 1461 1067 275 -498 -962 -1088 -963 -681 -409 -319 -406 -483 -433 -335 -309 -331 -295 -208 -203 -310 -404 -392 -333 -308 -321 -323 -291 -253 -281 -377 -437 -369 -264 -259 -335 -347 -257 -195 -262 -395 -467 -407 -275 -180 -187 -256 -309 -314 -318 -340 -367 -390 -414 -435 -415 -291 -44 237 294 2 -247 194 394 -2228 -7041 -7623 517 10812 12117 4001 -3767 -5113 -2727 -996 -599 -464 -315 -272 -301 -344 -387 -375 -306 -260 -280 -287 -271 -312 -410 -439 -359 -225 -51 270 801 1358 1555 1136 263 -573 -1020 -1066 -917 -729 -559 -388 -266 -284 -400 -435 -323 -206 -223 -303 -329 -301 -290 -301 -312 -318 -345 -388 -417 -398 -330 -254 -244 -300 -345 -326 -299 -313 -343 -352 -353 -359 -347 -296 -275 -321 -369 -335 -268 -272 -351 -394 -318 -194 -189 -315 -436 -450 -380 -238 -15 175 126 -111 -76 493 42 -3433 -7524 -5676 3658 11581 9480 855 -4789 -4377 -1812 -473 -316 -421 -468 -381 -262 -268 -362 -364 -241 -134 -185 -364 -515 -510 -374 -228 -156 -130 -45 238 773 1359 1554 1080 155 -651 -1008 -1043 -980 -818 -545 -323 -271 -285 -257 -222 -218 -254 -339 -415 -466 -476 -342 -12 208 -80 -633 -841 -557 -150 0 -87 -237 -339 -385 -423 -429 -429 -428 -349 -162 -31 -243 -643 -731 -404 -87 -86 -97 58 4 -274 -159 507 -98 -3650 -7028 -4228 4645 10582 7246 -437 -4396 -3498 -1531 -617 -305 -119 -108 -233 -422 -555 -515 -353 -166 -40 -13 -5 -10 -179 -528 -739 -451 163 661 1038 1423 1471 927 109 -460 -603 -525 -423 -502 -759 -830 -473 25 77 -286 -392 19 365 82 -521 -741 -351 195 250 -193 -539 -315 187 201 -312 -654 -429 50 109 -311 -550 -253 123 37 -371 -511 -269 -65 -93 -174 -214 -267 -337 -340 -276 -181 2 229 234 -50 -125 543 632 -2407 -7289 -7227 1486 11267 11499 3067 -4061 -4705 -2183 -637 -335 -248 -269 -424 -467 -290 -60 70 53 -115 -327 -409 -345 -230 -167 -179 -276 -337 -57 658 1478 1915 1716 996 44 -770 -1173 -1131 -817 -454 -252 -274 -394 -402 -268 -156 -164 -220 -248 -240 -194 -161 -224 -373 -496 -409 -108 151 51 -359 -653 -536 -199 -5 -85 -273 -341 -260 -171 -194 -318 -387 -301 -129 -35 -97 -296 -526 -606 -453 -219 -53 115 358 376 -77 -464 100 625 -1727 -6461 -7104 655 10194 10965 3055 -3984 -4659 -1988 -387 -439 -766 -688 -290 74 127 -124 -420 -530 -397 -153 7 -108 -450 
